sample interval	   MLII
(0,0027777 sec)	   (mV)
0	 -0.445
1	 -0.445
2	 -0.445
3	 -0.445
4	 -0.445
5	 -0.445
6	 -0.445
7	 -0.445
8	 -0.450
9	 -0.430
10	 -0.435
11	 -0.405
12	 -0.385
13	 -0.365
14	 -0.355
15	 -0.340
16	 -0.325
17	 -0.305
18	 -0.285
19	 -0.260
20	 -0.245
21	 -0.225
22	 -0.240
23	 -0.225
24	 -0.210
25	 -0.195
26	 -0.190
27	 -0.195
28	 -0.205
29	 -0.205
30	 -0.200
31	 -0.205
32	 -0.210
33	 -0.215
34	 -0.235
35	 -0.235
36	 -0.220
37	 -0.235
38	 -0.240
39	 -0.255
40	 -0.280
41	 -0.275
42	 -0.265
43	 -0.270
44	 -0.270
45	 -0.285
46	 -0.305
47	 -0.305
48	 -0.295
49	 -0.290
50	 -0.300
51	 -0.305
52	 -0.315
53	 -0.310
54	 -0.315
55	 -0.295
56	 -0.300
57	 -0.310
58	 -0.315
59	 -0.315
60	 -0.320
61	 -0.315
62	 -0.305
63	 -0.310
64	 -0.330
65	 -0.325
66	 -0.330
67	 -0.320
68	 -0.320
69	 -0.310
70	 -0.325
71	 -0.330
72	 -0.330
73	 -0.325
74	 -0.325
75	 -0.335
76	 -0.335
77	 -0.330
78	 -0.320
79	 -0.320
80	 -0.335
81	 -0.335
82	 -0.345
83	 -0.340
84	 -0.325
85	 -0.320
86	 -0.325
87	 -0.350
88	 -0.360
89	 -0.350
90	 -0.325
91	 -0.310
92	 -0.325
93	 -0.335
94	 -0.340
95	 -0.340
96	 -0.330
97	 -0.325
98	 -0.335
99	 -0.340
100	 -0.345
101	 -0.330
102	 -0.335
103	 -0.325
104	 -0.325
105	 -0.335
106	 -0.340
107	 -0.325
108	 -0.325
109	 -0.320
110	 -0.325
111	 -0.330
112	 -0.345
113	 -0.325
114	 -0.325
115	 -0.325
116	 -0.320
117	 -0.325
118	 -0.330
119	 -0.335
120	 -0.305
121	 -0.310
122	 -0.295
123	 -0.285
124	 -0.290
125	 -0.245
126	 -0.230
127	 -0.210
128	 -0.230
129	 -0.245
130	 -0.245
131	 -0.225
132	 -0.190
133	 -0.155
134	 -0.145
135	 -0.150
136	 -0.155
137	 -0.150
138	 -0.140
139	 -0.130
140	 -0.120
141	 -0.125
142	 -0.140
143	 -0.145
144	 -0.150
145	 -0.155
146	 -0.150
147	 -0.175
148	 -0.200
149	 -0.240
150	 -0.280
151	 -0.325
152	 -0.360
153	 -0.380
154	 -0.390
155	 -0.380
156	 -0.380
157	 -0.370
158	 -0.380
159	 -0.395
160	 -0.415
161	 -0.395
162	 -0.395
163	 -0.380
164	 -0.370
165	 -0.375
166	 -0.390
167	 -0.385
168	 -0.380
169	 -0.365
170	 -0.375
171	 -0.370
172	 -0.400
173	 -0.385
174	 -0.370
175	 -0.375
176	 -0.370
177	 -0.370
178	 -0.360
179	 -0.355
180	 -0.355
181	 -0.365
182	 -0.370
183	 -0.370
184	 -0.355
185	 -0.300
186	 -0.210
187	 -0.085
188	  0.050
189	  0.235
190	  0.400
191	  0.590
192	  0.775
193	  0.915
194	1.025
195	1.100
196	1.160
197	1.180
198	1.090
199	  0.960
200	  0.825
201	  0.710
202	  0.575
203	  0.410
204	  0.255
205	  0.145
206	  0.095
207	  0.005
208	 -0.105
209	 -0.195
210	 -0.245
211	 -0.285
212	 -0.325
213	 -0.375
214	 -0.430
215	 -0.470
216	 -0.495
217	 -0.505
218	 -0.520
219	 -0.550
220	 -0.560
221	 -0.550
222	 -0.540
223	 -0.520
224	 -0.540
225	 -0.540
226	 -0.550
227	 -0.545
228	 -0.530
229	 -0.515
230	 -0.530
231	 -0.530
232	 -0.535
233	 -0.545
234	 -0.525
235	 -0.515
236	 -0.510
237	 -0.525
238	 -0.535
239	 -0.520
240	 -0.510
241	 -0.505
242	 -0.510
243	 -0.525
244	 -0.535
245	 -0.535
246	 -0.515
247	 -0.510
248	 -0.515
249	 -0.520
250	 -0.530
251	 -0.545
252	 -0.535
253	 -0.525
254	 -0.515
255	 -0.530
256	 -0.535
257	 -0.530
258	 -0.515
259	 -0.520
260	 -0.530
261	 -0.525
262	 -0.515
263	 -0.520
264	 -0.495
265	 -0.480
266	 -0.490
267	 -0.485
268	 -0.495
269	 -0.470
270	 -0.470
271	 -0.450
272	 -0.445
273	 -0.430
274	 -0.435
275	 -0.420
276	 -0.400
277	 -0.375
278	 -0.370
279	 -0.360
280	 -0.350
281	 -0.330
282	 -0.300
283	 -0.260
284	 -0.250
285	 -0.240
286	 -0.235
287	 -0.230
288	 -0.210
289	 -0.205
290	 -0.180
291	 -0.175
292	 -0.185
293	 -0.170
294	 -0.165
295	 -0.160
296	 -0.155
297	 -0.170
298	 -0.170
299	 -0.175
300	 -0.175
301	 -0.185
302	 -0.185
303	 -0.195
304	 -0.200
305	 -0.215
306	 -0.220
307	 -0.215
308	 -0.230
309	 -0.265
310	 -0.280
311	 -0.265
312	 -0.260
313	 -0.265
314	 -0.255
315	 -0.280
316	 -0.310
317	 -0.305
318	 -0.290
319	 -0.285
320	 -0.300
321	 -0.285
322	 -0.290
323	 -0.290
324	 -0.290
325	 -0.295
326	 -0.295
327	 -0.310
328	 -0.310
329	 -0.310
330	 -0.315
331	 -0.315
332	 -0.315
333	 -0.325
334	 -0.330
335	 -0.325
336	 -0.310
337	 -0.315
338	 -0.320
339	 -0.325
340	 -0.360
341	 -0.335
342	 -0.320
343	 -0.310
344	 -0.320
345	 -0.320
346	 -0.330
347	 -0.330
348	 -0.310
349	 -0.290
350	 -0.300
351	 -0.325
352	 -0.330
353	 -0.345
354	 -0.325
355	 -0.320
356	 -0.320
357	 -0.310
358	 -0.315
359	 -0.320
360	 -0.320
361	 -0.315
362	 -0.310
363	 -0.330
364	 -0.340
365	 -0.335
366	 -0.325
367	 -0.320
368	 -0.320
369	 -0.325
370	 -0.345
371	 -0.335
372	 -0.320
373	 -0.320
374	 -0.320
375	 -0.330
376	 -0.360
377	 -0.345
378	 -0.320
379	 -0.320
380	 -0.330
381	 -0.340
382	 -0.355
383	 -0.345
384	 -0.330
385	 -0.305
386	 -0.300
387	 -0.295
388	 -0.305
389	 -0.285
390	 -0.245
391	 -0.225
392	 -0.225
393	 -0.245
394	 -0.260
395	 -0.250
396	 -0.220
397	 -0.205
398	 -0.175
399	 -0.180
400	 -0.175
401	 -0.170
402	 -0.145
403	 -0.120
404	 -0.145
405	 -0.150
406	 -0.165
407	 -0.170
408	 -0.165
409	 -0.170
410	 -0.185
411	 -0.205
412	 -0.240
413	 -0.270
414	 -0.325
415	 -0.360
416	 -0.390
417	 -0.395
418	 -0.405
419	 -0.405
420	 -0.415
421	 -0.410
422	 -0.400
423	 -0.410
424	 -0.420
425	 -0.420
426	 -0.400
427	 -0.395
428	 -0.395
429	 -0.400
430	 -0.390
431	 -0.390
432	 -0.385
433	 -0.380
434	 -0.390
435	 -0.400
436	 -0.395
437	 -0.385
438	 -0.375
439	 -0.370
440	 -0.365
441	 -0.385
442	 -0.390
443	 -0.385
444	 -0.390
445	 -0.390
446	 -0.385
447	 -0.370
448	 -0.330
449	 -0.225
450	 -0.090
451	  0.090
452	  0.270
453	  0.460
454	  0.640
455	  0.830
456	  0.980
457	1.085
458	1.175
459	1.175
460	1.065
461	  0.910
462	  0.780
463	  0.660
464	  0.530
465	  0.385
466	  0.245
467	  0.175
468	  0.155
469	  0.095
470	  0.000
471	 -0.115
472	 -0.190
473	 -0.250
474	 -0.295
475	 -0.350
476	 -0.415
477	 -0.455
478	 -0.490
479	 -0.495
480	 -0.495
481	 -0.510
482	 -0.520
483	 -0.540
484	 -0.560
485	 -0.550
486	 -0.540
487	 -0.520
488	 -0.515
489	 -0.520
490	 -0.530
491	 -0.525
492	 -0.495
493	 -0.475
494	 -0.485
495	 -0.495
496	 -0.510
497	 -0.515
498	 -0.505
499	 -0.495
500	 -0.500
501	 -0.490
502	 -0.495
503	 -0.490
504	 -0.490
505	 -0.485
506	 -0.500
507	 -0.505
508	 -0.515
509	 -0.515
510	 -0.510
511	 -0.505
512	 -0.505
513	 -0.500
514	 -0.505
515	 -0.510
516	 -0.500
517	 -0.500
518	 -0.500
519	 -0.505
520	 -0.525
521	 -0.515
522	 -0.515
523	 -0.515
524	 -0.495
525	 -0.500
526	 -0.510
527	 -0.495
528	 -0.490
529	 -0.470
530	 -0.475
531	 -0.480
532	 -0.475
533	 -0.450
534	 -0.440
535	 -0.415
536	 -0.410
537	 -0.420
538	 -0.400
539	 -0.385
540	 -0.345
541	 -0.325
542	 -0.320
543	 -0.335
544	 -0.325
545	 -0.305
546	 -0.285
547	 -0.255
548	 -0.240
549	 -0.235
550	 -0.235
551	 -0.230
552	 -0.205
553	 -0.190
554	 -0.200
555	 -0.200
556	 -0.220
557	 -0.205
558	 -0.220
559	 -0.205
560	 -0.215
561	 -0.245
562	 -0.260
563	 -0.250
564	 -0.255
565	 -0.250
566	 -0.265
567	 -0.280
568	 -0.300
569	 -0.295
570	 -0.300
571	 -0.300
572	 -0.305
573	 -0.310
574	 -0.330
575	 -0.330
576	 -0.320
577	 -0.315
578	 -0.320
579	 -0.330
580	 -0.345
581	 -0.345
582	 -0.340
583	 -0.335
584	 -0.335
585	 -0.340
586	 -0.355
587	 -0.340
588	 -0.345
589	 -0.340
590	 -0.350
591	 -0.350
592	 -0.365
593	 -0.365
594	 -0.350
595	 -0.335
596	 -0.335
597	 -0.350
598	 -0.360
599	 -0.370
600	 -0.360
601	 -0.345
602	 -0.350
603	 -0.365
604	 -0.365
605	 -0.370
606	 -0.355
607	 -0.355
608	 -0.360
609	 -0.365
610	 -0.365
611	 -0.355
612	 -0.335
613	 -0.340
614	 -0.355
615	 -0.375
616	 -0.385
617	 -0.375
618	 -0.360
619	 -0.350
620	 -0.355
621	 -0.365
622	 -0.375
623	 -0.370
624	 -0.360
625	 -0.355
626	 -0.355
627	 -0.365
628	 -0.365
629	 -0.355
630	 -0.335
631	 -0.325
632	 -0.335
633	 -0.360
634	 -0.375
635	 -0.355
636	 -0.335
637	 -0.320
638	 -0.320
639	 -0.290
640	 -0.300
641	 -0.275
642	 -0.250
643	 -0.220
644	 -0.240
645	 -0.255
646	 -0.245
647	 -0.215
648	 -0.180
649	 -0.170
650	 -0.165
651	 -0.145
652	 -0.135
653	 -0.125
654	 -0.115
655	 -0.105
656	 -0.115
657	 -0.130
658	 -0.170
659	 -0.170
660	 -0.180
661	 -0.180
662	 -0.210
663	 -0.255
664	 -0.315
665	 -0.350
666	 -0.370
667	 -0.375
668	 -0.370
669	 -0.390
670	 -0.405
671	 -0.400
672	 -0.390
673	 -0.375
674	 -0.380
675	 -0.385
676	 -0.405
677	 -0.385
678	 -0.375
679	 -0.375
680	 -0.380
681	 -0.375
682	 -0.380
683	 -0.370
684	 -0.355
685	 -0.350
686	 -0.355
687	 -0.365
688	 -0.375
689	 -0.360
690	 -0.350
691	 -0.340
692	 -0.340
693	 -0.355
694	 -0.380
695	 -0.380
696	 -0.360
697	 -0.320
698	 -0.230
699	 -0.100
700	  0.055
701	  0.240
702	  0.415
703	  0.610
704	  0.775
705	  0.925
706	1.030
707	1.105
708	1.155
709	1.140
710	1.035
711	  0.885
712	  0.755
713	  0.650
714	  0.540
715	  0.370
716	  0.190
717	  0.080
718	 -0.015
719	 -0.080
720	 -0.175
721	 -0.245
722	 -0.305
723	 -0.365
724	 -0.410
725	 -0.450
726	 -0.470
727	 -0.490
728	 -0.495
729	 -0.535
730	 -0.560
731	 -0.570
732	 -0.565
733	 -0.555
734	 -0.560
735	 -0.565
736	 -0.585
737	 -0.570
738	 -0.555
739	 -0.550
740	 -0.545
741	 -0.555
742	 -0.570
743	 -0.560
744	 -0.550
745	 -0.545
746	 -0.525
747	 -0.530
748	 -0.545
749	 -0.535
750	 -0.530
751	 -0.530
752	 -0.520
753	 -0.525
754	 -0.535
755	 -0.535
756	 -0.525
757	 -0.535
758	 -0.525
759	 -0.530
760	 -0.550
761	 -0.535
762	 -0.530
763	 -0.520
764	 -0.535
765	 -0.545
766	 -0.550
767	 -0.540
768	 -0.525
769	 -0.525
770	 -0.535
771	 -0.540
772	 -0.530
773	 -0.520
774	 -0.510
775	 -0.500
776	 -0.505
777	 -0.515
778	 -0.520
779	 -0.510
780	 -0.505
781	 -0.495
782	 -0.480
783	 -0.475
784	 -0.475
785	 -0.455
786	 -0.425
787	 -0.400
788	 -0.410
789	 -0.405
790	 -0.400
791	 -0.385
792	 -0.370
793	 -0.345
794	 -0.315
795	 -0.310
796	 -0.315
797	 -0.290
798	 -0.260
799	 -0.250
800	 -0.235
801	 -0.230
802	 -0.240
803	 -0.225
804	 -0.220
805	 -0.205
806	 -0.200
807	 -0.180
808	 -0.185
809	 -0.180
810	 -0.185
811	 -0.170
812	 -0.190
813	 -0.210
814	 -0.225
815	 -0.230
816	 -0.215
817	 -0.215
818	 -0.230
819	 -0.250
820	 -0.260
821	 -0.270
822	 -0.255
823	 -0.255
824	 -0.265
825	 -0.275
826	 -0.275
827	 -0.280
828	 -0.285
829	 -0.270
830	 -0.270
831	 -0.295
832	 -0.300
833	 -0.310
834	 -0.310
835	 -0.295
836	 -0.295
837	 -0.295
838	 -0.315
839	 -0.315
840	 -0.325
841	 -0.315
842	 -0.315
843	 -0.315
844	 -0.325
845	 -0.335
846	 -0.330
847	 -0.330
848	 -0.320
849	 -0.320
850	 -0.325
851	 -0.325
852	 -0.310
853	 -0.310
854	 -0.315
855	 -0.305
856	 -0.310
857	 -0.320
858	 -0.320
859	 -0.320
860	 -0.320
861	 -0.320
862	 -0.330
863	 -0.320
864	 -0.315
865	 -0.305
866	 -0.315
867	 -0.315
868	 -0.340
869	 -0.335
870	 -0.325
871	 -0.315
872	 -0.310
873	 -0.330
874	 -0.340
875	 -0.320
876	 -0.305
877	 -0.295
878	 -0.300
879	 -0.315
880	 -0.330
881	 -0.330
882	 -0.310
883	 -0.295
884	 -0.300
885	 -0.320
886	 -0.330
887	 -0.325
888	 -0.310
889	 -0.295
890	 -0.310
891	 -0.320
892	 -0.315
893	 -0.295
894	 -0.280
895	 -0.265
896	 -0.245
897	 -0.245
898	 -0.245
899	 -0.240
900	 -0.220
901	 -0.215
902	 -0.230
903	 -0.210
904	 -0.195
905	 -0.180
906	 -0.160
907	 -0.135
908	 -0.125
909	 -0.130
910	 -0.130
911	 -0.120
912	 -0.095
913	 -0.105
914	 -0.105
915	 -0.130
916	 -0.150
917	 -0.140
918	 -0.145
919	 -0.170
920	 -0.230
921	 -0.280
922	 -0.325
923	 -0.340
924	 -0.340
925	 -0.335
926	 -0.360
927	 -0.365
928	 -0.375
929	 -0.370
930	 -0.355
931	 -0.340
932	 -0.345
933	 -0.350
934	 -0.345
935	 -0.350
936	 -0.350
937	 -0.330
938	 -0.315
939	 -0.325
940	 -0.340
941	 -0.330
942	 -0.335
943	 -0.315
944	 -0.310
945	 -0.310
946	 -0.320
947	 -0.315
948	 -0.305
949	 -0.305
950	 -0.315
951	 -0.325
952	 -0.335
953	 -0.330
954	 -0.275
955	 -0.165
956	 -0.010
957	  0.185
958	  0.355
959	  0.560
960	  0.770
961	  0.945
962	1.050
963	1.140
964	1.180
965	1.140
966	1.035
967	  0.895
968	  0.770
969	  0.675
970	  0.570
971	  0.460
972	  0.310
973	  0.170
974	  0.065
975	 -0.030
976	 -0.110
977	 -0.195
978	 -0.270
979	 -0.330
980	 -0.365
981	 -0.420
982	 -0.485
983	 -0.500
984	 -0.510
985	 -0.500
986	 -0.505
987	 -0.515
988	 -0.535
989	 -0.545
990	 -0.540
991	 -0.540
992	 -0.540
993	 -0.535
994	 -0.520
995	 -0.515
996	 -0.515
997	 -0.510
998	 -0.510
999	 -0.505
1000	 -0.500
1001	 -0.495
1002	 -0.490
1003	 -0.490
1004	 -0.495
1005	 -0.495
1006	 -0.485
1007	 -0.465
1008	 -0.470
1009	 -0.470
1010	 -0.475
1011	 -0.495
1012	 -0.490
1013	 -0.470
1014	 -0.470
1015	 -0.485
1016	 -0.480
1017	 -0.500
1018	 -0.485
1019	 -0.475
1020	 -0.485
1021	 -0.480
1022	 -0.490
1023	 -0.495
1024	 -0.505
1025	 -0.510
1026	 -0.475
1027	 -0.480
1028	 -0.485
1029	 -0.500
1030	 -0.495
1031	 -0.485
1032	 -0.475
1033	 -0.465
1034	 -0.470
1035	 -0.485
1036	 -0.465
1037	 -0.450
1038	 -0.425
1039	 -0.420
1040	 -0.400
1041	 -0.415
1042	 -0.395
1043	 -0.385
1044	 -0.380
1045	 -0.375
1046	 -0.370
1047	 -0.370
1048	 -0.345
1049	 -0.315
1050	 -0.285
1051	 -0.280
1052	 -0.255
1053	 -0.260
1054	 -0.235
1055	 -0.215
1056	 -0.195
1057	 -0.190
1058	 -0.180
1059	 -0.175
1060	 -0.165
1061	 -0.155
1062	 -0.140
1063	 -0.145
1064	 -0.150
1065	 -0.155
1066	 -0.175
1067	 -0.175
1068	 -0.160
1069	 -0.175
1070	 -0.200
1071	 -0.215
1072	 -0.220
1073	 -0.215
1074	 -0.225
1075	 -0.230
1076	 -0.230
1077	 -0.240
1078	 -0.235
1079	 -0.240
1080	 -0.245
1081	 -0.255
1082	 -0.245
1083	 -0.245
1084	 -0.255
1085	 -0.245
1086	 -0.240
1087	 -0.255
1088	 -0.265
1089	 -0.280
1090	 -0.275
1091	 -0.270
1092	 -0.260
1093	 -0.260
1094	 -0.270
1095	 -0.280
1096	 -0.285
1097	 -0.280
1098	 -0.270
1099	 -0.270
1100	 -0.275
1101	 -0.270
1102	 -0.270
1103	 -0.270
1104	 -0.265
1105	 -0.255
1106	 -0.275
1107	 -0.290
1108	 -0.280
1109	 -0.270
1110	 -0.280
1111	 -0.285
1112	 -0.280
1113	 -0.280
1114	 -0.275
1115	 -0.275
1116	 -0.260
1117	 -0.265
1118	 -0.280
1119	 -0.285
1120	 -0.280
1121	 -0.270
1122	 -0.250
1123	 -0.270
1124	 -0.290
1125	 -0.280
1126	 -0.290
1127	 -0.265
1128	 -0.260
1129	 -0.255
1130	 -0.270
1131	 -0.285
1132	 -0.285
1133	 -0.275
1134	 -0.260
1135	 -0.270
1136	 -0.265
1137	 -0.280
1138	 -0.280
1139	 -0.260
1140	 -0.265
1141	 -0.275
1142	 -0.280
1143	 -0.295
1144	 -0.275
1145	 -0.250
1146	 -0.245
1147	 -0.255
1148	 -0.270
1149	 -0.285
1150	 -0.285
1151	 -0.265
1152	 -0.240
1153	 -0.235
1154	 -0.225
1155	 -0.205
1156	 -0.170
1157	 -0.145
1158	 -0.150
1159	 -0.180
1160	 -0.175
1161	 -0.170
1162	 -0.130
1163	 -0.100
1164	 -0.085
1165	 -0.090
1166	 -0.075
1167	 -0.085
1168	 -0.090
1169	 -0.075
1170	 -0.055
1171	 -0.065
1172	 -0.075
1173	 -0.090
1174	 -0.110
1175	 -0.110
1176	 -0.120
1177	 -0.130
1178	 -0.190
1179	 -0.260
1180	 -0.300
1181	 -0.325
1182	 -0.330
1183	 -0.335
1184	 -0.340
1185	 -0.335
1186	 -0.330
1187	 -0.340
1188	 -0.340
1189	 -0.335
1190	 -0.335
1191	 -0.340
1192	 -0.325
1193	 -0.335
1194	 -0.325
1195	 -0.320
1196	 -0.325
1197	 -0.325
1198	 -0.325
1199	 -0.310
1200	 -0.295
1201	 -0.305
1202	 -0.305
1203	 -0.305
1204	 -0.280
1205	 -0.270
1206	 -0.275
1207	 -0.290
1208	 -0.315
1209	 -0.310
1210	 -0.290
1211	 -0.245
1212	 -0.160
1213	 -0.045
1214	  0.115
1215	  0.300
1216	  0.515
1217	  0.740
1218	  0.935
1219	1.075
1220	1.195
1221	1.235
1222	1.195
1223	1.080
1224	  0.960
1225	  0.835
1226	  0.740
1227	  0.625
1228	  0.465
1229	  0.310
1230	  0.215
1231	  0.140
1232	  0.025
1233	 -0.080
1234	 -0.160
1235	 -0.230
1236	 -0.270
1237	 -0.325
1238	 -0.385
1239	 -0.445
1240	 -0.460
1241	 -0.460
1242	 -0.485
1243	 -0.485
1244	 -0.495
1245	 -0.500
1246	 -0.495
1247	 -0.510
1248	 -0.515
1249	 -0.505
1250	 -0.495
1251	 -0.495
1252	 -0.495
1253	 -0.475
1254	 -0.475
1255	 -0.480
1256	 -0.485
1257	 -0.490
1258	 -0.500
1259	 -0.485
1260	 -0.470
1261	 -0.470
1262	 -0.465
1263	 -0.470
1264	 -0.465
1265	 -0.465
1266	 -0.480
1267	 -0.475
1268	 -0.480
1269	 -0.480
1270	 -0.480
1271	 -0.465
1272	 -0.470
1273	 -0.470
1274	 -0.475
1275	 -0.485
1276	 -0.465
1277	 -0.460
1278	 -0.455
1279	 -0.450
1280	 -0.460
1281	 -0.480
1282	 -0.460
1283	 -0.450
1284	 -0.440
1285	 -0.445
1286	 -0.450
1287	 -0.465
1288	 -0.465
1289	 -0.465
1290	 -0.455
1291	 -0.440
1292	 -0.430
1293	 -0.435
1294	 -0.420
1295	 -0.410
1296	 -0.390
1297	 -0.370
1298	 -0.365
1299	 -0.360
1300	 -0.330
1301	 -0.315
1302	 -0.295
1303	 -0.275
1304	 -0.280
1305	 -0.270
1306	 -0.240
1307	 -0.220
1308	 -0.200
1309	 -0.185
1310	 -0.180
1311	 -0.175
1312	 -0.160
1313	 -0.135
1314	 -0.115
1315	 -0.125
1316	 -0.130
1317	 -0.155
1318	 -0.150
1319	 -0.140
1320	 -0.135
1321	 -0.140
1322	 -0.160
1323	 -0.175
1324	 -0.175
1325	 -0.180
1326	 -0.170
1327	 -0.185
1328	 -0.200
1329	 -0.215
1330	 -0.220
1331	 -0.225
1332	 -0.235
1333	 -0.235
1334	 -0.240
1335	 -0.250
1336	 -0.250
1337	 -0.240
1338	 -0.235
1339	 -0.250
1340	 -0.250
1341	 -0.280
1342	 -0.270
1343	 -0.270
1344	 -0.260
1345	 -0.275
1346	 -0.275
1347	 -0.300
1348	 -0.285
1349	 -0.275
1350	 -0.265
1351	 -0.270
1352	 -0.280
1353	 -0.295
1354	 -0.290
1355	 -0.285
1356	 -0.265
1357	 -0.285
1358	 -0.295
1359	 -0.295
1360	 -0.310
1361	 -0.290
1362	 -0.280
1363	 -0.285
1364	 -0.290
1365	 -0.290
1366	 -0.295
1367	 -0.290
1368	 -0.285
1369	 -0.290
1370	 -0.285
1371	 -0.310
1372	 -0.300
1373	 -0.305
1374	 -0.295
1375	 -0.290
1376	 -0.290
1377	 -0.290
1378	 -0.295
1379	 -0.300
1380	 -0.280
1381	 -0.280
1382	 -0.285
1383	 -0.300
1384	 -0.290
1385	 -0.285
1386	 -0.275
1387	 -0.270
1388	 -0.275
1389	 -0.300
1390	 -0.290
1391	 -0.275
1392	 -0.275
1393	 -0.270
1394	 -0.285
1395	 -0.295
1396	 -0.285
1397	 -0.280
1398	 -0.265
1399	 -0.270
1400	 -0.270
1401	 -0.270
1402	 -0.275
1403	 -0.255
1404	 -0.255
1405	 -0.255
1406	 -0.265
1407	 -0.270
1408	 -0.225
1409	 -0.205
1410	 -0.195
1411	 -0.185
1412	 -0.195
1413	 -0.200
1414	 -0.195
1415	 -0.175
1416	 -0.145
1417	 -0.130
1418	 -0.130
1419	 -0.125
1420	 -0.110
1421	 -0.095
1422	 -0.060
1423	 -0.070
1424	 -0.075
1425	 -0.105
1426	 -0.100
1427	 -0.085
1428	 -0.085
1429	 -0.090
1430	 -0.115
1431	 -0.130
1432	 -0.155
1433	 -0.180
1434	 -0.220
1435	 -0.275
1436	 -0.305
1437	 -0.355
1438	 -0.350
1439	 -0.335
1440	 -0.330
1441	 -0.340
1442	 -0.350
1443	 -0.370
1444	 -0.345
1445	 -0.340
1446	 -0.330
1447	 -0.330
1448	 -0.340
1449	 -0.340
1450	 -0.330
1451	 -0.325
1452	 -0.320
1453	 -0.320
1454	 -0.330
1455	 -0.340
1456	 -0.320
1457	 -0.305
1458	 -0.295
1459	 -0.290
1460	 -0.300
1461	 -0.320
1462	 -0.300
1463	 -0.310
1464	 -0.310
1465	 -0.315
1466	 -0.310
1467	 -0.300
1468	 -0.235
1469	 -0.140
1470	  0.000
1471	  0.180
1472	  0.365
1473	  0.555
1474	  0.755
1475	  0.940
1476	1.075
1477	1.160
1478	1.210
1479	1.165
1480	1.065
1481	  0.940
1482	  0.835
1483	  0.755
1484	  0.655
1485	  0.525
1486	  0.360
1487	  0.220
1488	  0.135
1489	  0.070
1490	 -0.020
1491	 -0.130
1492	 -0.215
1493	 -0.275
1494	 -0.315
1495	 -0.360
1496	 -0.410
1497	 -0.445
1498	 -0.455
1499	 -0.465
1500	 -0.465
1501	 -0.470
1502	 -0.485
1503	 -0.495
1504	 -0.505
1505	 -0.500
1506	 -0.495
1507	 -0.500
1508	 -0.495
1509	 -0.500
1510	 -0.495
1511	 -0.480
1512	 -0.470
1513	 -0.475
1514	 -0.470
1515	 -0.485
1516	 -0.475
1517	 -0.465
1518	 -0.465
1519	 -0.470
1520	 -0.495
1521	 -0.495
1522	 -0.485
1523	 -0.475
1524	 -0.470
1525	 -0.480
1526	 -0.485
1527	 -0.505
1528	 -0.495
1529	 -0.475
1530	 -0.460
1531	 -0.465
1532	 -0.480
1533	 -0.485
1534	 -0.495
1535	 -0.475
1536	 -0.485
1537	 -0.485
1538	 -0.475
1539	 -0.495
1540	 -0.505
1541	 -0.490
1542	 -0.485
1543	 -0.470
1544	 -0.470
1545	 -0.470
1546	 -0.485
1547	 -0.465
1548	 -0.465
1549	 -0.465
1550	 -0.460
1551	 -0.450
1552	 -0.455
1553	 -0.430
1554	 -0.410
1555	 -0.410
1556	 -0.410
1557	 -0.405
1558	 -0.380
1559	 -0.350
1560	 -0.340
1561	 -0.330
1562	 -0.325
1563	 -0.300
1564	 -0.270
1565	 -0.245
1566	 -0.240
1567	 -0.225
1568	 -0.230
1569	 -0.230
1570	 -0.210
1571	 -0.195
1572	 -0.175
1573	 -0.175
1574	 -0.175
1575	 -0.175
1576	 -0.170
1577	 -0.155
1578	 -0.140
1579	 -0.155
1580	 -0.175
1581	 -0.190
1582	 -0.180
1583	 -0.195
1584	 -0.205
1585	 -0.200
1586	 -0.205
1587	 -0.230
1588	 -0.230
1589	 -0.225
1590	 -0.210
1591	 -0.225
1592	 -0.240
1593	 -0.245
1594	 -0.250
1595	 -0.245
1596	 -0.245
1597	 -0.245
1598	 -0.260
1599	 -0.280
1600	 -0.290
1601	 -0.280
1602	 -0.260
1603	 -0.260
1604	 -0.285
1605	 -0.295
1606	 -0.285
1607	 -0.280
1608	 -0.265
1609	 -0.270
1610	 -0.275
1611	 -0.305
1612	 -0.300
1613	 -0.295
1614	 -0.275
1615	 -0.280
1616	 -0.295
1617	 -0.300
1618	 -0.295
1619	 -0.290
1620	 -0.285
1621	 -0.290
1622	 -0.300
1623	 -0.300
1624	 -0.290
1625	 -0.285
1626	 -0.295
1627	 -0.280
1628	 -0.285
1629	 -0.295
1630	 -0.285
1631	 -0.290
1632	 -0.275
1633	 -0.285
1634	 -0.305
1635	 -0.305
1636	 -0.305
1637	 -0.285
1638	 -0.285
1639	 -0.290
1640	 -0.295
1641	 -0.305
1642	 -0.305
1643	 -0.295
1644	 -0.285
1645	 -0.280
1646	 -0.280
1647	 -0.295
1648	 -0.290
1649	 -0.285
1650	 -0.275
1651	 -0.285
1652	 -0.280
1653	 -0.295
1654	 -0.290
1655	 -0.290
1656	 -0.285
1657	 -0.280
1658	 -0.290
1659	 -0.300
1660	 -0.275
1661	 -0.275
1662	 -0.275
1663	 -0.275
1664	 -0.290
1665	 -0.285
1666	 -0.270
1667	 -0.265
1668	 -0.245
1669	 -0.230
1670	 -0.220
1671	 -0.220
1672	 -0.210
1673	 -0.180
1674	 -0.180
1675	 -0.190
1676	 -0.190
1677	 -0.190
1678	 -0.150
1679	 -0.125
1680	 -0.105
1681	 -0.095
1682	 -0.090
1683	 -0.090
1684	 -0.075
1685	 -0.060
1686	 -0.065
1687	 -0.080
1688	 -0.095
1689	 -0.110
1690	 -0.105
1691	 -0.100
1692	 -0.100
1693	 -0.125
1694	 -0.170
1695	 -0.225
1696	 -0.270
1697	 -0.295
1698	 -0.305
1699	 -0.325
1700	 -0.345
1701	 -0.340
1702	 -0.335
1703	 -0.325
1704	 -0.320
1705	 -0.330
1706	 -0.340
1707	 -0.350
1708	 -0.340
1709	 -0.320
1710	 -0.320
1711	 -0.320
1712	 -0.320
1713	 -0.325
1714	 -0.325
1715	 -0.320
1716	 -0.300
1717	 -0.295
1718	 -0.305
1719	 -0.310
1720	 -0.310
1721	 -0.305
1722	 -0.290
1723	 -0.280
1724	 -0.305
1725	 -0.310
1726	 -0.315
1727	 -0.325
1728	 -0.310
1729	 -0.300
1730	 -0.255
1731	 -0.180
1732	 -0.045
1733	  0.135
1734	  0.320
1735	  0.495
1736	  0.675
1737	  0.855
1738	1.015
1739	1.135
1740	1.200
1741	1.205
1742	1.100
1743	  0.950
1744	  0.820
1745	  0.745
1746	  0.660
1747	  0.520
1748	  0.355
1749	  0.240
1750	  0.155
1751	  0.140
1752	  0.080
1753	 -0.020
1754	 -0.125
1755	 -0.220
1756	 -0.290
1757	 -0.325
1758	 -0.355
1759	 -0.395
1760	 -0.435
1761	 -0.455
1762	 -0.460
1763	 -0.475
1764	 -0.480
1765	 -0.495
1766	 -0.500
1767	 -0.510
1768	 -0.500
1769	 -0.485
1770	 -0.475
1771	 -0.480
1772	 -0.495
1773	 -0.490
1774	 -0.485
1775	 -0.475
1776	 -0.445
1777	 -0.460
1778	 -0.485
1779	 -0.495
1780	 -0.490
1781	 -0.480
1782	 -0.465
1783	 -0.465
1784	 -0.470
1785	 -0.480
1786	 -0.475
1787	 -0.460
1788	 -0.470
1789	 -0.460
1790	 -0.470
1791	 -0.470
1792	 -0.480
1793	 -0.485
1794	 -0.475
1795	 -0.475
1796	 -0.490
1797	 -0.510
1798	 -0.510
1799	 -0.510
1800	 -0.495
1801	 -0.500
1802	 -0.510
1803	 -0.505
1804	 -0.495
1805	 -0.505
1806	 -0.490
1807	 -0.490
1808	 -0.495
1809	 -0.495
1810	 -0.485
1811	 -0.470
1812	 -0.465
1813	 -0.485
1814	 -0.480
1815	 -0.485
1816	 -0.470
1817	 -0.440
1818	 -0.430
1819	 -0.440
1820	 -0.435
1821	 -0.425
1822	 -0.405
1823	 -0.400
1824	 -0.385
1825	 -0.365
1826	 -0.355
1827	 -0.350
1828	 -0.330
1829	 -0.315
1830	 -0.290
1831	 -0.275
1832	 -0.270
1833	 -0.265
1834	 -0.250
1835	 -0.245
1836	 -0.215
1837	 -0.200
1838	 -0.190
1839	 -0.195
1840	 -0.175
1841	 -0.160
1842	 -0.155
1843	 -0.150
1844	 -0.160
1845	 -0.165
1846	 -0.160
1847	 -0.155
1848	 -0.155
1849	 -0.170
1850	 -0.185
1851	 -0.200
1852	 -0.210
1853	 -0.195
1854	 -0.200
1855	 -0.210
1856	 -0.235
1857	 -0.240
1858	 -0.245
1859	 -0.235
1860	 -0.220
1861	 -0.230
1862	 -0.255
1863	 -0.270
1864	 -0.275
1865	 -0.265
1866	 -0.260
1867	 -0.265
1868	 -0.265
1869	 -0.275
1870	 -0.285
1871	 -0.275
1872	 -0.265
1873	 -0.260
1874	 -0.275
1875	 -0.290
1876	 -0.280
1877	 -0.295
1878	 -0.280
1879	 -0.285
1880	 -0.290
1881	 -0.310
1882	 -0.295
1883	 -0.285
1884	 -0.285
1885	 -0.295
1886	 -0.310
1887	 -0.325
1888	 -0.310
1889	 -0.295
1890	 -0.285
1891	 -0.295
1892	 -0.305
1893	 -0.305
1894	 -0.310
1895	 -0.295
1896	 -0.290
1897	 -0.290
1898	 -0.300
1899	 -0.305
1900	 -0.295
1901	 -0.300
1902	 -0.300
1903	 -0.295
1904	 -0.285
1905	 -0.295
1906	 -0.290
1907	 -0.280
1908	 -0.275
1909	 -0.290
1910	 -0.305
1911	 -0.305
1912	 -0.295
1913	 -0.285
1914	 -0.275
1915	 -0.290
1916	 -0.295
1917	 -0.310
1918	 -0.300
1919	 -0.295
1920	 -0.275
1921	 -0.275
1922	 -0.290
1923	 -0.300
1924	 -0.305
1925	 -0.290
1926	 -0.290
1927	 -0.285
1928	 -0.280
1929	 -0.285
1930	 -0.290
1931	 -0.285
1932	 -0.280
1933	 -0.285
1934	 -0.275
1935	 -0.285
1936	 -0.275
1937	 -0.265
1938	 -0.265
1939	 -0.265
1940	 -0.265
1941	 -0.255
1942	 -0.220
1943	 -0.185
1944	 -0.175
1945	 -0.180
1946	 -0.200
1947	 -0.215
1948	 -0.190
1949	 -0.160
1950	 -0.125
1951	 -0.115
1952	 -0.110
1953	 -0.115
1954	 -0.115
1955	 -0.100
1956	 -0.075
1957	 -0.075
1958	 -0.085
1959	 -0.100
1960	 -0.095
1961	 -0.085
1962	 -0.100
1963	 -0.120
1964	 -0.125
1965	 -0.145
1966	 -0.165
1967	 -0.195
1968	 -0.245
1969	 -0.300
1970	 -0.325
1971	 -0.350
1972	 -0.350
1973	 -0.340
1974	 -0.340
1975	 -0.350
1976	 -0.360
1977	 -0.370
1978	 -0.355
1979	 -0.340
1980	 -0.335
1981	 -0.345
1982	 -0.335
1983	 -0.350
1984	 -0.350
1985	 -0.340
1986	 -0.340
1987	 -0.335
1988	 -0.335
1989	 -0.350
1990	 -0.340
1991	 -0.325
1992	 -0.310
1993	 -0.295
1994	 -0.325
1995	 -0.325
1996	 -0.310
1997	 -0.320
1998	 -0.315
1999	 -0.315
2000	 -0.330
2001	 -0.335
2002	 -0.320
2003	 -0.275
2004	 -0.215
2005	 -0.100
2006	  0.010
2007	  0.165
2008	  0.340
2009	  0.525
2010	  0.705
2011	  0.860
2012	  0.980
2013	1.080
2014	1.180
2015	1.205
2016	1.155
2017	1.025
2018	  0.880
2019	  0.770
2020	  0.685
2021	  0.595
2022	  0.480
2023	  0.330
2024	  0.220
2025	  0.165
2026	  0.090
2027	  0.015
2028	 -0.080
2029	 -0.175
2030	 -0.250
2031	 -0.310
2032	 -0.360
2033	 -0.415
2034	 -0.465
2035	 -0.490
2036	 -0.505
2037	 -0.520
2038	 -0.525
2039	 -0.535
2040	 -0.530
2041	 -0.530
2042	 -0.525
2043	 -0.550
2044	 -0.550
2045	 -0.555
2046	 -0.530
2047	 -0.525
2048	 -0.530
2049	 -0.530
2050	 -0.525
2051	 -0.525
2052	 -0.520
2053	 -0.525
2054	 -0.530
2055	 -0.520
2056	 -0.505
2057	 -0.510
2058	 -0.505
2059	 -0.505
2060	 -0.520
2061	 -0.525
2062	 -0.520
2063	 -0.505
2064	 -0.505
2065	 -0.505
2066	 -0.520
2067	 -0.525
2068	 -0.535
2069	 -0.530
2070	 -0.525
2071	 -0.525
2072	 -0.525
2073	 -0.530
2074	 -0.525
2075	 -0.525
2076	 -0.520
2077	 -0.525
2078	 -0.535
2079	 -0.530
2080	 -0.530
2081	 -0.520
2082	 -0.515
2083	 -0.530
2084	 -0.525
2085	 -0.530
2086	 -0.530
2087	 -0.510
2088	 -0.495
2089	 -0.495
2090	 -0.495
2091	 -0.505
2092	 -0.490
2093	 -0.465
2094	 -0.440
2095	 -0.435
2096	 -0.435
2097	 -0.445
2098	 -0.430
2099	 -0.405
2100	 -0.375
2101	 -0.365
2102	 -0.345
2103	 -0.335
2104	 -0.335
2105	 -0.315
2106	 -0.290
2107	 -0.300
2108	 -0.275
2109	 -0.275
2110	 -0.250
2111	 -0.230
2112	 -0.220
2113	 -0.220
2114	 -0.210
2115	 -0.215
2116	 -0.190
2117	 -0.180
2118	 -0.165
2119	 -0.170
2120	 -0.185
2121	 -0.205
2122	 -0.195
2123	 -0.190
2124	 -0.185
2125	 -0.185
2126	 -0.200
2127	 -0.210
2128	 -0.225
2129	 -0.220
2130	 -0.220
2131	 -0.235
2132	 -0.240
2133	 -0.260
2134	 -0.270
2135	 -0.275
2136	 -0.270
2137	 -0.275
2138	 -0.280
2139	 -0.290
2140	 -0.285
2141	 -0.275
2142	 -0.275
2143	 -0.290
2144	 -0.295
2145	 -0.310
2146	 -0.310
2147	 -0.295
2148	 -0.275
2149	 -0.295
2150	 -0.300
2151	 -0.315
2152	 -0.320
2153	 -0.310
2154	 -0.295
2155	 -0.300
2156	 -0.315
2157	 -0.335
2158	 -0.320
2159	 -0.315
2160	 -0.305
2161	 -0.315
2162	 -0.320
2163	 -0.325
2164	 -0.320
2165	 -0.315
2166	 -0.315
2167	 -0.310
2168	 -0.330
2169	 -0.335
2170	 -0.315
2171	 -0.320
2172	 -0.310
2173	 -0.310
2174	 -0.325
2175	 -0.335
2176	 -0.325
2177	 -0.310
2178	 -0.305
2179	 -0.300
2180	 -0.315
2181	 -0.320
2182	 -0.310
2183	 -0.305
2184	 -0.290
2185	 -0.300
2186	 -0.315
2187	 -0.310
2188	 -0.315
2189	 -0.305
2190	 -0.305
2191	 -0.310
2192	 -0.315
2193	 -0.315
2194	 -0.310
2195	 -0.300
2196	 -0.290
2197	 -0.310
2198	 -0.315
2199	 -0.330
2200	 -0.315
2201	 -0.295
2202	 -0.295
2203	 -0.300
2204	 -0.300
2205	 -0.315
2206	 -0.300
2207	 -0.290
2208	 -0.285
2209	 -0.285
2210	 -0.295
2211	 -0.305
2212	 -0.310
2213	 -0.295
2214	 -0.280
2215	 -0.270
2216	 -0.255
2217	 -0.250
2218	 -0.220
2219	 -0.205
2220	 -0.190
2221	 -0.195
2222	 -0.210
2223	 -0.220
2224	 -0.195
2225	 -0.175
2226	 -0.160
2227	 -0.155
2228	 -0.150
2229	 -0.145
2230	 -0.130
2231	 -0.110
2232	 -0.095
2233	 -0.110
2234	 -0.105
2235	 -0.125
2236	 -0.135
2237	 -0.130
2238	 -0.125
2239	 -0.140
2240	 -0.155
2241	 -0.200
2242	 -0.240
2243	 -0.275
2244	 -0.300
2245	 -0.320
2246	 -0.345
2247	 -0.380
2248	 -0.385
2249	 -0.370
2250	 -0.355
2251	 -0.365
2252	 -0.375
2253	 -0.380
2254	 -0.365
2255	 -0.355
2256	 -0.355
2257	 -0.360
2258	 -0.360
2259	 -0.370
2260	 -0.355
2261	 -0.345
2262	 -0.345
2263	 -0.335
2264	 -0.340
2265	 -0.340
2266	 -0.340
2267	 -0.325
2268	 -0.315
2269	 -0.320
2270	 -0.335
2271	 -0.345
2272	 -0.325
2273	 -0.345
2274	 -0.325
2275	 -0.315
2276	 -0.285
2277	 -0.185
2278	 -0.025
2279	  0.165
2280	  0.375
2281	  0.595
2282	  0.760
2283	  0.945
2284	1.090
2285	1.200
2286	1.280
2287	1.255
2288	1.145
2289	  0.995
2290	  0.850
2291	  0.730
2292	  0.625
2293	  0.470
2294	  0.305
2295	  0.175
2296	  0.100
2297	  0.035
2298	 -0.060
2299	 -0.145
2300	 -0.235
2301	 -0.290
2302	 -0.335
2303	 -0.385
2304	 -0.435
2305	 -0.460
2306	 -0.490
2307	 -0.495
2308	 -0.510
2309	 -0.525
2310	 -0.535
2311	 -0.540
2312	 -0.535
2313	 -0.555
2314	 -0.560
2315	 -0.530
2316	 -0.520
2317	 -0.520
2318	 -0.525
2319	 -0.540
2320	 -0.530
2321	 -0.525
2322	 -0.520
2323	 -0.520
2324	 -0.515
2325	 -0.525
2326	 -0.515
2327	 -0.500
2328	 -0.500
2329	 -0.505
2330	 -0.510
2331	 -0.530
2332	 -0.530
2333	 -0.510
2334	 -0.510
2335	 -0.505
2336	 -0.505
2337	 -0.510
2338	 -0.530
2339	 -0.510
2340	 -0.500
2341	 -0.505
2342	 -0.515
2343	 -0.525
2344	 -0.520
2345	 -0.500
2346	 -0.495
2347	 -0.495
2348	 -0.515
2349	 -0.520
2350	 -0.525
2351	 -0.510
2352	 -0.510
2353	 -0.510
2354	 -0.500
2355	 -0.500
2356	 -0.490
2357	 -0.480
2358	 -0.485
2359	 -0.470
2360	 -0.460
2361	 -0.465
2362	 -0.450
2363	 -0.435
2364	 -0.420
2365	 -0.415
2366	 -0.410
2367	 -0.410
2368	 -0.400
2369	 -0.360
2370	 -0.340
2371	 -0.330
2372	 -0.310
2373	 -0.310
2374	 -0.300
2375	 -0.275
2376	 -0.255
2377	 -0.235
2378	 -0.230
2379	 -0.235
2380	 -0.210
2381	 -0.190
2382	 -0.175
2383	 -0.160
2384	 -0.160
2385	 -0.160
2386	 -0.165
2387	 -0.170
2388	 -0.180
2389	 -0.175
2390	 -0.185
2391	 -0.205
2392	 -0.205
2393	 -0.200
2394	 -0.210
2395	 -0.220
2396	 -0.225
2397	 -0.250
2398	 -0.250
2399	 -0.250
2400	 -0.260
2401	 -0.260
2402	 -0.270
2403	 -0.295
2404	 -0.285
2405	 -0.260
2406	 -0.260
2407	 -0.270
2408	 -0.275
2409	 -0.305
2410	 -0.300
2411	 -0.295
2412	 -0.295
2413	 -0.290
2414	 -0.285
2415	 -0.300
2416	 -0.305
2417	 -0.300
2418	 -0.295
2419	 -0.300
2420	 -0.310
2421	 -0.315
2422	 -0.315
2423	 -0.305
2424	 -0.300
2425	 -0.305
2426	 -0.300
2427	 -0.320
2428	 -0.320
2429	 -0.315
2430	 -0.320
2431	 -0.325
2432	 -0.320
2433	 -0.330
2434	 -0.330
2435	 -0.320
2436	 -0.305
2437	 -0.310
2438	 -0.315
2439	 -0.320
2440	 -0.315
2441	 -0.305
2442	 -0.300
2443	 -0.305
2444	 -0.305
2445	 -0.330
2446	 -0.320
2447	 -0.305
2448	 -0.300
2449	 -0.305
2450	 -0.295
2451	 -0.300
2452	 -0.325
2453	 -0.305
2454	 -0.290
2455	 -0.295
2456	 -0.300
2457	 -0.315
2458	 -0.320
2459	 -0.310
2460	 -0.305
2461	 -0.300
2462	 -0.310
2463	 -0.320
2464	 -0.310
2465	 -0.305
2466	 -0.295
2467	 -0.295
2468	 -0.310
2469	 -0.315
2470	 -0.320
2471	 -0.310
2472	 -0.310
2473	 -0.305
2474	 -0.310
2475	 -0.305
2476	 -0.305
2477	 -0.290
2478	 -0.260
2479	 -0.250
2480	 -0.240
2481	 -0.250
2482	 -0.235
2483	 -0.220
2484	 -0.210
2485	 -0.225
2486	 -0.220
2487	 -0.225
2488	 -0.180
2489	 -0.160
2490	 -0.145
2491	 -0.125
2492	 -0.135
2493	 -0.125
2494	 -0.110
2495	 -0.105
2496	 -0.110
2497	 -0.115
2498	 -0.135
2499	 -0.155
2500	 -0.155
2501	 -0.170
2502	 -0.175
2503	 -0.195
2504	 -0.235
2505	 -0.280
2506	 -0.325
2507	 -0.330
2508	 -0.345
2509	 -0.360
2510	 -0.375
2511	 -0.380
2512	 -0.375
2513	 -0.380
2514	 -0.380
2515	 -0.380
2516	 -0.390
2517	 -0.375
2518	 -0.355
2519	 -0.355
2520	 -0.350
2521	 -0.345
2522	 -0.345
2523	 -0.350
2524	 -0.345
2525	 -0.340
2526	 -0.330
2527	 -0.325
2528	 -0.335
2529	 -0.340
2530	 -0.340
2531	 -0.320
2532	 -0.310
2533	 -0.325
2534	 -0.320
2535	 -0.335
2536	 -0.340
2537	 -0.320
2538	 -0.315
2539	 -0.275
2540	 -0.195
2541	 -0.050
2542	  0.115
2543	  0.315
2544	  0.480
2545	  0.670
2546	  0.830
2547	  0.955
2548	1.080
2549	1.165
2550	1.220
2551	1.200
2552	1.090
2553	  0.930
2554	  0.810
2555	  0.720
2556	  0.615
2557	  0.440
2558	  0.260
2559	  0.125
2560	  0.035
2561	 -0.030
2562	 -0.095
2563	 -0.195
2564	 -0.280
2565	 -0.330
2566	 -0.365
2567	 -0.385
2568	 -0.420
2569	 -0.465
2570	 -0.495
2571	 -0.515
2572	 -0.525
2573	 -0.530
2574	 -0.525
2575	 -0.530
2576	 -0.525
2577	 -0.540
2578	 -0.535
2579	 -0.525
2580	 -0.520
2581	 -0.520
2582	 -0.535
2583	 -0.515
2584	 -0.515
2585	 -0.500
2586	 -0.520
2587	 -0.520
2588	 -0.510
2589	 -0.525
2590	 -0.520
2591	 -0.495
2592	 -0.490
2593	 -0.520
2594	 -0.510
2595	 -0.515
2596	 -0.510
2597	 -0.505
2598	 -0.505
2599	 -0.510
2600	 -0.500
2601	 -0.515
2602	 -0.520
2603	 -0.515
2604	 -0.515
2605	 -0.525
2606	 -0.510
2607	 -0.520
2608	 -0.505
2609	 -0.500
2610	 -0.500
2611	 -0.510
2612	 -0.510
2613	 -0.510
2614	 -0.510
2615	 -0.500
2616	 -0.500
2617	 -0.500
2618	 -0.500
2619	 -0.495
2620	 -0.485
2621	 -0.455
2622	 -0.460
2623	 -0.440
2624	 -0.460
2625	 -0.455
2626	 -0.435
2627	 -0.405
2628	 -0.400
2629	 -0.395
2630	 -0.400
2631	 -0.400
2632	 -0.370
2633	 -0.345
2634	 -0.325
2635	 -0.315
2636	 -0.305
2637	 -0.290
2638	 -0.270
2639	 -0.245
2640	 -0.225
2641	 -0.225
2642	 -0.205
2643	 -0.220
2644	 -0.195
2645	 -0.185
2646	 -0.175
2647	 -0.180
2648	 -0.190
2649	 -0.195
2650	 -0.185
2651	 -0.190
2652	 -0.200
2653	 -0.195
2654	 -0.220
2655	 -0.240
2656	 -0.240
2657	 -0.240
2658	 -0.230
2659	 -0.235
2660	 -0.240
2661	 -0.265
2662	 -0.265
2663	 -0.255
2664	 -0.255
2665	 -0.260
2666	 -0.265
2667	 -0.270
2668	 -0.280
2669	 -0.265
2670	 -0.250
2671	 -0.270
2672	 -0.280
2673	 -0.290
2674	 -0.280
2675	 -0.275
2676	 -0.280
2677	 -0.275
2678	 -0.280
2679	 -0.290
2680	 -0.295
2681	 -0.290
2682	 -0.300
2683	 -0.280
2684	 -0.300
2685	 -0.295
2686	 -0.295
2687	 -0.280
2688	 -0.280
2689	 -0.280
2690	 -0.290
2691	 -0.300
2692	 -0.275
2693	 -0.270
2694	 -0.275
2695	 -0.285
2696	 -0.285
2697	 -0.290
2698	 -0.275
2699	 -0.280
2700	 -0.265
2701	 -0.270
2702	 -0.290
2703	 -0.300
2704	 -0.275
2705	 -0.285
2706	 -0.270
2707	 -0.275
2708	 -0.280
2709	 -0.285
2710	 -0.280
2711	 -0.265
2712	 -0.270
2713	 -0.260
2714	 -0.275
2715	 -0.280
2716	 -0.275
2717	 -0.255
2718	 -0.245
2719	 -0.245
2720	 -0.265
2721	 -0.285
2722	 -0.275
2723	 -0.275
2724	 -0.255
2725	 -0.255
2726	 -0.255
2727	 -0.270
2728	 -0.265
2729	 -0.255
2730	 -0.235
2731	 -0.230
2732	 -0.235
2733	 -0.250
2734	 -0.235
2735	 -0.205
2736	 -0.175
2737	 -0.155
2738	 -0.160
2739	 -0.160
2740	 -0.160
2741	 -0.155
2742	 -0.150
2743	 -0.140
2744	 -0.115
2745	 -0.105
2746	 -0.080
2747	 -0.070
2748	 -0.055
2749	 -0.045
2750	 -0.045
2751	 -0.055
2752	 -0.050
2753	 -0.065
2754	 -0.070
2755	 -0.070
2756	 -0.080
2757	 -0.100
2758	 -0.120
2759	 -0.160
2760	 -0.195
2761	 -0.250
2762	 -0.290
2763	 -0.315
2764	 -0.315
2765	 -0.320
2766	 -0.295
2767	 -0.310
2768	 -0.320
2769	 -0.315
2770	 -0.315
2771	 -0.295
2772	 -0.275
2773	 -0.280
2774	 -0.290
2775	 -0.315
2776	 -0.295
2777	 -0.290
2778	 -0.290
2779	 -0.275
2780	 -0.290
2781	 -0.300
2782	 -0.290
2783	 -0.275
2784	 -0.265
2785	 -0.255
2786	 -0.265
2787	 -0.290
2788	 -0.295
2789	 -0.285
2790	 -0.255
2791	 -0.220
2792	 -0.155
2793	 -0.075
2794	  0.060
2795	  0.210
2796	  0.380
2797	  0.555
2798	  0.745
2799	  0.915
2800	1.065
2801	1.165
2802	1.250
2803	1.220
2804	1.095
2805	  0.930
2806	  0.795
2807	  0.680
2808	  0.570
2809	  0.410
2810	  0.275
2811	  0.195
2812	  0.130
2813	  0.035
2814	 -0.055
2815	 -0.130
2816	 -0.195
2817	 -0.255
2818	 -0.310
2819	 -0.345
2820	 -0.370
2821	 -0.405
2822	 -0.425
2823	 -0.440
2824	 -0.450
2825	 -0.450
2826	 -0.450
2827	 -0.465
2828	 -0.460
2829	 -0.480
2830	 -0.460
2831	 -0.445
2832	 -0.430
2833	 -0.435
2834	 -0.450
2835	 -0.465
2836	 -0.460
2837	 -0.450
2838	 -0.445
2839	 -0.430
2840	 -0.440
2841	 -0.440
2842	 -0.455
2843	 -0.430
2844	 -0.440
2845	 -0.435
2846	 -0.435
2847	 -0.445
2848	 -0.445
2849	 -0.435
2850	 -0.435
2851	 -0.435
2852	 -0.445
2853	 -0.440
2854	 -0.435
2855	 -0.430
2856	 -0.430
2857	 -0.440
2858	 -0.440
2859	 -0.435
2860	 -0.435
2861	 -0.430
2862	 -0.420
2863	 -0.430
2864	 -0.440
2865	 -0.440
2866	 -0.445
2867	 -0.435
2868	 -0.410
2869	 -0.415
2870	 -0.415
2871	 -0.430
2872	 -0.415
2873	 -0.405
2874	 -0.390
2875	 -0.380
2876	 -0.385
2877	 -0.395
2878	 -0.385
2879	 -0.360
2880	 -0.330
2881	 -0.320
2882	 -0.310
2883	 -0.310
2884	 -0.310
2885	 -0.280
2886	 -0.245
2887	 -0.225
2888	 -0.210
2889	 -0.205
2890	 -0.195
2891	 -0.165
2892	 -0.150
2893	 -0.140
2894	 -0.135
2895	 -0.115
2896	 -0.110
2897	 -0.095
2898	 -0.095
2899	 -0.105
2900	 -0.110
2901	 -0.115
2902	 -0.105
2903	 -0.110
2904	 -0.110
2905	 -0.125
2906	 -0.140
2907	 -0.150
2908	 -0.155
2909	 -0.150
2910	 -0.155
2911	 -0.170
2912	 -0.175
2913	 -0.190
2914	 -0.180
2915	 -0.170
2916	 -0.175
2917	 -0.175
2918	 -0.190
2919	 -0.210
2920	 -0.200
2921	 -0.200
2922	 -0.195
2923	 -0.200
2924	 -0.215
2925	 -0.220
2926	 -0.225
2927	 -0.215
2928	 -0.195
2929	 -0.220
2930	 -0.205
2931	 -0.230
2932	 -0.230
2933	 -0.220
2934	 -0.215
2935	 -0.215
2936	 -0.230
2937	 -0.250
2938	 -0.240
2939	 -0.230
2940	 -0.220
2941	 -0.215
2942	 -0.230
2943	 -0.230
2944	 -0.220
2945	 -0.225
2946	 -0.230
2947	 -0.230
2948	 -0.220
2949	 -0.230
2950	 -0.230
2951	 -0.225
2952	 -0.215
2953	 -0.220
2954	 -0.220
2955	 -0.225
2956	 -0.225
2957	 -0.210
2958	 -0.215
2959	 -0.210
2960	 -0.215
2961	 -0.215
2962	 -0.215
2963	 -0.210
2964	 -0.200
2965	 -0.215
2966	 -0.225
2967	 -0.230
2968	 -0.215
2969	 -0.200
2970	 -0.205
2971	 -0.205
2972	 -0.200
2973	 -0.215
2974	 -0.195
2975	 -0.190
2976	 -0.175
2977	 -0.190
2978	 -0.210
2979	 -0.220
2980	 -0.215
2981	 -0.195
2982	 -0.190
2983	 -0.185
2984	 -0.175
2985	 -0.150
2986	 -0.115
2987	 -0.095
2988	 -0.090
2989	 -0.110
2990	 -0.120
2991	 -0.130
2992	 -0.110
2993	 -0.070
2994	 -0.050
2995	 -0.040
2996	 -0.035
2997	 -0.050
2998	 -0.040
2999	 -0.005
3000	  0.010
3001	  0.000
3002	 -0.020
3003	 -0.045
3004	 -0.045
3005	 -0.040
3006	 -0.055
3007	 -0.090
3008	 -0.160
3009	 -0.220
3010	 -0.270
3011	 -0.260
3012	 -0.265
3013	 -0.265
3014	 -0.275
3015	 -0.290
3016	 -0.280
3017	 -0.285
3018	 -0.270
3019	 -0.255
3020	 -0.265
3021	 -0.265
3022	 -0.260
3023	 -0.260
3024	 -0.260
3025	 -0.260
3026	 -0.265
3027	 -0.265
3028	 -0.245
3029	 -0.235
3030	 -0.230
3031	 -0.220
3032	 -0.225
3033	 -0.245
3034	 -0.225
3035	 -0.215
3036	 -0.205
3037	 -0.205
3038	 -0.230
3039	 -0.245
3040	 -0.225
3041	 -0.190
3042	 -0.105
3043	  0.025
3044	  0.200
3045	  0.390
3046	  0.615
3047	  0.830
3048	1.005
3049	1.130
3050	1.210
3051	1.270
3052	1.320
3053	1.275
3054	1.145
3055	  0.970
3056	  0.840
3057	  0.715
3058	  0.550
3059	  0.410
3060	  0.310
3061	  0.235
3062	  0.155
3063	  0.040
3064	 -0.060
3065	 -0.140
3066	 -0.185
3067	 -0.240
3068	 -0.290
3069	 -0.350
3070	 -0.370
3071	 -0.370
3072	 -0.385
3073	 -0.405
3074	 -0.430
3075	 -0.435
3076	 -0.430
3077	 -0.430
3078	 -0.430
3079	 -0.420
3080	 -0.435
3081	 -0.435
3082	 -0.430
3083	 -0.420
3084	 -0.395
3085	 -0.405
3086	 -0.405
3087	 -0.420
3088	 -0.415
3089	 -0.390
3090	 -0.380
3091	 -0.395
3092	 -0.410
3093	 -0.420
3094	 -0.415
3095	 -0.405
3096	 -0.385
3097	 -0.390
3098	 -0.415
3099	 -0.420
3100	 -0.415
3101	 -0.395
3102	 -0.390
3103	 -0.390
3104	 -0.400
3105	 -0.440
3106	 -0.445
3107	 -0.420
3108	 -0.405
3109	 -0.415
3110	 -0.410
3111	 -0.425
3112	 -0.425
3113	 -0.420
3114	 -0.405
3115	 -0.420
3116	 -0.430
3117	 -0.430
3118	 -0.430
3119	 -0.420
3120	 -0.405
3121	 -0.400
3122	 -0.410
3123	 -0.405
3124	 -0.390
3125	 -0.380
3126	 -0.365
3127	 -0.345
3128	 -0.335
3129	 -0.330
3130	 -0.315
3131	 -0.305
3132	 -0.280
3133	 -0.275
3134	 -0.270
3135	 -0.270
3136	 -0.250
3137	 -0.225
3138	 -0.205
3139	 -0.195
3140	 -0.180
3141	 -0.185
3142	 -0.160
3143	 -0.135
3144	 -0.110
3145	 -0.100
3146	 -0.100
3147	 -0.105
3148	 -0.110
3149	 -0.100
3150	 -0.080
3151	 -0.095
3152	 -0.095
3153	 -0.125
3154	 -0.115
3155	 -0.110
3156	 -0.115
3157	 -0.115
3158	 -0.125
3159	 -0.155
3160	 -0.150
3161	 -0.135
3162	 -0.145
3163	 -0.145
3164	 -0.150
3165	 -0.165
3166	 -0.175
3167	 -0.170
3168	 -0.180
3169	 -0.185
3170	 -0.200
3171	 -0.200
3172	 -0.195
3173	 -0.190
3174	 -0.200
3175	 -0.190
3176	 -0.200
3177	 -0.205
3178	 -0.205
3179	 -0.205
3180	 -0.195
3181	 -0.200
3182	 -0.215
3183	 -0.225
3184	 -0.225
3185	 -0.220
3186	 -0.225
3187	 -0.235
3188	 -0.235
3189	 -0.230
3190	 -0.215
3191	 -0.215
3192	 -0.210
3193	 -0.210
3194	 -0.215
3195	 -0.225
3196	 -0.210
3197	 -0.205
3198	 -0.200
3199	 -0.215
3200	 -0.225
3201	 -0.235
3202	 -0.230
3203	 -0.215
3204	 -0.195
3205	 -0.195
3206	 -0.205
3207	 -0.230
3208	 -0.225
3209	 -0.215
3210	 -0.205
3211	 -0.210
3212	 -0.225
3213	 -0.230
3214	 -0.215
3215	 -0.220
3216	 -0.225
3217	 -0.230
3218	 -0.225
3219	 -0.220
3220	 -0.220
3221	 -0.205
3222	 -0.205
3223	 -0.210
3224	 -0.215
3225	 -0.225
3226	 -0.220
3227	 -0.220
3228	 -0.220
3229	 -0.215
3230	 -0.220
3231	 -0.230
3232	 -0.215
3233	 -0.200
3234	 -0.205
3235	 -0.205
3236	 -0.215
3237	 -0.205
3238	 -0.180
3239	 -0.145
3240	 -0.120
3241	 -0.120
3242	 -0.135
3243	 -0.145
3244	 -0.125
3245	 -0.095
3246	 -0.065
3247	 -0.045
3248	 -0.050
3249	 -0.050
3250	 -0.035
3251	 -0.020
3252	  0.000
3253	 -0.010
3254	 -0.035
3255	 -0.050
3256	 -0.065
3257	 -0.050
3258	 -0.060
3259	 -0.090
3260	 -0.130
3261	 -0.190
3262	 -0.235
3263	 -0.260
3264	 -0.280
3265	 -0.285
3266	 -0.300
3267	 -0.300
3268	 -0.295
3269	 -0.295
3270	 -0.270
3271	 -0.265
3272	 -0.270
3273	 -0.290
3274	 -0.290
3275	 -0.285
3276	 -0.275
3277	 -0.270
3278	 -0.270
3279	 -0.285
3280	 -0.275
3281	 -0.255
3282	 -0.250
3283	 -0.245
3284	 -0.255
3285	 -0.270
3286	 -0.260
3287	 -0.255
3288	 -0.255
3289	 -0.250
3290	 -0.270
3291	 -0.280
3292	 -0.240
3293	 -0.170
3294	 -0.030
3295	  0.130
3296	  0.305
3297	  0.500
3298	  0.725
3299	  0.940
3300	1.100
3301	1.215
3302	1.260
3303	1.200
3304	1.065
3305	  0.930
3306	  0.800
3307	  0.660
3308	  0.495
3309	  0.340
3310	  0.235
3311	  0.195
3312	  0.170
3313	  0.085
3314	 -0.025
3315	 -0.130
3316	 -0.195
3317	 -0.250
3318	 -0.305
3319	 -0.355
3320	 -0.395
3321	 -0.420
3322	 -0.420
3323	 -0.425
3324	 -0.440
3325	 -0.440
3326	 -0.460
3327	 -0.455
3328	 -0.460
3329	 -0.450
3330	 -0.435
3331	 -0.440
3332	 -0.450
3333	 -0.450
3334	 -0.440
3335	 -0.425
3336	 -0.410
3337	 -0.420
3338	 -0.435
3339	 -0.440
3340	 -0.430
3341	 -0.425
3342	 -0.415
3343	 -0.425
3344	 -0.425
3345	 -0.425
3346	 -0.420
3347	 -0.410
3348	 -0.405
3349	 -0.415
3350	 -0.420
3351	 -0.425
3352	 -0.435
3353	 -0.430
3354	 -0.425
3355	 -0.410
3356	 -0.425
3357	 -0.425
3358	 -0.425
3359	 -0.425
3360	 -0.430
3361	 -0.440
3362	 -0.440
3363	 -0.430
3364	 -0.425
3365	 -0.420
3366	 -0.405
3367	 -0.410
3368	 -0.425
3369	 -0.410
3370	 -0.415
3371	 -0.405
3372	 -0.410
3373	 -0.395
3374	 -0.400
3375	 -0.405
3376	 -0.385
3377	 -0.365
3378	 -0.345
3379	 -0.330
3380	 -0.325
3381	 -0.320
3382	 -0.310
3383	 -0.290
3384	 -0.280
3385	 -0.265
3386	 -0.260
3387	 -0.270
3388	 -0.245
3389	 -0.220
3390	 -0.190
3391	 -0.170
3392	 -0.160
3393	 -0.170
3394	 -0.155
3395	 -0.140
3396	 -0.125
3397	 -0.130
3398	 -0.125
3399	 -0.125
3400	 -0.110
3401	 -0.105
3402	 -0.110
3403	 -0.110
3404	 -0.120
3405	 -0.125
3406	 -0.140
3407	 -0.135
3408	 -0.130
3409	 -0.150
3410	 -0.155
3411	 -0.180
3412	 -0.185
3413	 -0.180
3414	 -0.165
3415	 -0.175
3416	 -0.200
3417	 -0.200
3418	 -0.200
3419	 -0.210
3420	 -0.190
3421	 -0.210
3422	 -0.210
3423	 -0.210
3424	 -0.220
3425	 -0.210
3426	 -0.210
3427	 -0.225
3428	 -0.220
3429	 -0.235
3430	 -0.225
3431	 -0.215
3432	 -0.220
3433	 -0.235
3434	 -0.245
3435	 -0.260
3436	 -0.250
3437	 -0.245
3438	 -0.255
3439	 -0.255
3440	 -0.255
3441	 -0.255
3442	 -0.250
3443	 -0.250
3444	 -0.240
3445	 -0.245
3446	 -0.245
3447	 -0.245
3448	 -0.250
3449	 -0.245
3450	 -0.235
3451	 -0.235
3452	 -0.245
3453	 -0.245
3454	 -0.245
3455	 -0.245
3456	 -0.240
3457	 -0.265
3458	 -0.250
3459	 -0.265
3460	 -0.245
3461	 -0.230
3462	 -0.230
3463	 -0.240
3464	 -0.250
3465	 -0.265
3466	 -0.255
3467	 -0.245
3468	 -0.230
3469	 -0.235
3470	 -0.235
3471	 -0.250
3472	 -0.245
3473	 -0.235
3474	 -0.240
3475	 -0.240
3476	 -0.255
3477	 -0.270
3478	 -0.250
3479	 -0.245
3480	 -0.250
3481	 -0.240
3482	 -0.260
3483	 -0.260
3484	 -0.265
3485	 -0.245
3486	 -0.240
3487	 -0.245
3488	 -0.240
3489	 -0.240
3490	 -0.240
3491	 -0.220
3492	 -0.210
3493	 -0.190
3494	 -0.170
3495	 -0.180
3496	 -0.165
3497	 -0.150
3498	 -0.150
3499	 -0.175
3500	 -0.175
3501	 -0.165
3502	 -0.125
3503	 -0.095
3504	 -0.070
3505	 -0.065
3506	 -0.075
3507	 -0.070
3508	 -0.060
3509	 -0.030
3510	 -0.025
3511	 -0.035
3512	 -0.055
3513	 -0.075
3514	 -0.065
3515	 -0.070
3516	 -0.095
3517	 -0.115
3518	 -0.160
3519	 -0.220
3520	 -0.255
3521	 -0.280
3522	 -0.280
3523	 -0.290
3524	 -0.310
3525	 -0.320
3526	 -0.310
3527	 -0.295
3528	 -0.295
3529	 -0.295
3530	 -0.305
3531	 -0.305
3532	 -0.295
3533	 -0.280
3534	 -0.275
3535	 -0.280
3536	 -0.290
3537	 -0.305
3538	 -0.285
3539	 -0.275
3540	 -0.275
3541	 -0.265
3542	 -0.255
3543	 -0.265
3544	 -0.265
3545	 -0.260
3546	 -0.245
3547	 -0.245
3548	 -0.260
3549	 -0.270
3550	 -0.265
3551	 -0.230
3552	 -0.170
3553	 -0.070
3554	  0.070
3555	  0.230
3556	  0.410
3557	  0.580
3558	  0.750
3559	  0.880
3560	1.005
3561	1.105
3562	1.190
3563	1.245
3564	1.200
3565	1.065
3566	  0.905
3567	  0.760
3568	  0.660
3569	  0.530
3570	  0.375
3571	  0.235
3572	  0.135
3573	  0.075
3574	  0.000
3575	 -0.085
3576	 -0.155
3577	 -0.220
3578	 -0.260
3579	 -0.300
3580	 -0.330
3581	 -0.355
3582	 -0.390
3583	 -0.410
3584	 -0.445
3585	 -0.450
3586	 -0.450
3587	 -0.445
3588	 -0.460
3589	 -0.455
3590	 -0.465
3591	 -0.470
3592	 -0.445
3593	 -0.435
3594	 -0.435
3595	 -0.430
3596	 -0.445
3597	 -0.435
3598	 -0.435
3599	 -0.415
